8.079390840 78928.0
8.158172524 79328.0
8.236954208 79281.0
8.315735892 79897.0
8.394517576 79727.0
8.473299260 79701.0
8.552080944 79304.0
8.630862628 80096.0
8.709644312 80382.0
8.788425996 80093.0
8.867207680 80433.0
8.945989364 80487.0
9.024771048 80322.0
9.103552732 80196.0
9.182334416 80820.0
9.261116100 80190.0
9.339897784 80820.0
9.418679468 80655.0
9.497461152 80920.0
9.576242836 80389.0
9.655024520 80831.0
9.733806204 80858.0
9.812587888 81544.0
9.891369572 81109.0
9.970151256 81141.0
10.048932940 80960.0
10.127714624 80876.0
10.206496308 81281.0
10.285277992 81286.0
10.364059676 81616.0
10.442841360 81522.0
10.521623044 81744.0
10.600404728 81121.0
10.679186412 81695.0
10.757968096 82082.0
10.836749780 81565.0
10.915531464 81759.0
10.994313148 81726.0
11.073094832 82272.0
11.151876516 82331.0
11.230658200 82755.0
11.309439884 82544.0
11.388221568 82655.0
11.467003252 82105.0
11.545784936 82189.0
11.624566620 81988.0
11.703348304 82251.0
11.782129988 83140.0
11.860911672 82135.0
11.939693356 82535.0
12.018475040 82559.0
12.097256724 82863.0
12.176038408 83439.0
12.254820092 82678.0
12.333601776 82679.0
12.412383460 82667.0
12.491165144 83091.0
12.569946828 82477.0
12.648728512 83734.0
12.727510196 83176.0
12.806291880 82502.0
12.885073564 82941.0
12.963855248 83119.0
13.042636932 82528.0
13.121418616 83104.0
13.200200300 82226.0
13.278981984 82742.0
13.357763668 82618.0
13.436545352 82553.0
13.515327036 82544.0
13.594108720 82286.0
13.672890404 82300.0
13.751672088 82074.0
13.830453772 81792.0
13.909235456 81715.0
13.988017140 81440.0
14.066798824 81861.0
14.145580508 81435.0
14.224362192 81163.0
14.303143876 80720.0
14.381925560 80518.0
14.460707244 80432.0
14.539488928 80810.0
14.618270612 80394.0
14.697052295 80090.0
14.775833979 80026.0
14.854615663 80509.0
14.933397347 79355.0
15.012179031 79881.0
15.090960715 79622.0
15.169742399 79762.0
15.248524083 79290.0
15.327305767 79145.0
15.406087451 78419.0
15.484869135 78937.0
15.563650819 79591.0
15.642432503 78405.0
15.721214187 79425.0
15.799995871 78021.0
15.878777555 78259.0
15.957559239 78211.0
16.036340923 77712.0
16.115122607 77704.0
16.193904291 78347.0
16.272685975 77876.0
16.351467659 77784.0
16.430249343 77328.0
16.509031027 76808.0
16.587812711 76885.0
16.666594395 76935.0
16.745376079 77084.0
16.824157763 76593.0
16.902939447 77053.0
16.981721131 76900.0
17.060502815 76730.0
17.139284499 76342.0
17.218066183 76328.0
17.296847867 76100.0
17.375629551 76085.0
17.454411235 76429.0
17.533192919 75870.0
17.611974603 75962.0
17.690756287 75528.0
17.769537971 75573.0
17.848319655 76015.0
17.927101339 75874.0
18.005883023 75342.0
18.084664707 75689.0
18.163446391 75852.0
18.242228075 75291.0
18.321009759 74905.0
18.399791443 74867.0
18.478573127 74580.0
18.557354811 75036.0
18.636136495 74933.0
18.714918179 74530.0
18.793699863 74208.0
18.872481547 74299.0
18.951263231 74017.0
19.030044915 73580.0
19.108826599 73986.0
19.187608283 74052.0
19.266389967 73567.0
19.345171651 72919.0
19.423953335 73343.0
19.502735019 73785.0
19.581516703 73830.0
19.660298387 73030.0
19.739080071 73101.0
19.817861755 73412.0
19.896643439 73118.0
19.975425123 73580.0
20.054206807 73311.0
20.132988491 72984.0
20.211770175 73410.0
20.290551859 72217.0
20.369333543 72206.0
20.448115227 72786.0
20.526896911 73575.0
20.605678595 72664.0
20.684460279 72890.0
20.763241963 72924.0
20.842023647 72477.0
20.920805331 72380.0
20.999587015 72372.0
21.078368699 72526.0
21.157150383 72772.0
21.235932067 72235.0
21.314713751 72543.0
21.393495435 72233.0
21.472277119 72322.0
21.551058803 72312.0
21.629840487 72182.0
21.708622171 73033.0
21.787403855 72729.0
21.866185539 72690.0
21.944967223 72855.0
22.023748907 72306.0
22.102530591 71867.0
22.181312275 72900.0
22.260093959 73115.0
22.338875643 72652.0
22.417657327 73653.0
22.496439011 73196.0
22.575220695 73767.0
22.654002379 74354.0
22.732784063 74186.0
22.811565747 73918.0
22.890347431 74498.0
22.969129115 74511.0
23.047910799 75037.0
23.126692483 75234.0
23.205474167 74754.0
23.284255851 75908.0
23.363037535 75673.0
23.441819219 76628.0
23.520600903 77059.0
23.599382587 78103.0
23.678164271 78708.0
23.756945955 80186.0
23.835727639 81373.0
23.914509323 83608.0
23.993291007 85692.0
24.072072691 88587.0
24.150854375 92461.0
24.229636059 96250.0
24.308417743 102336.0
24.387199427 110194.0
24.465981111 120228.0
24.544762795 135650.0
24.623544479 155097.0
24.702326163 179192.0
24.781107847 210167.0
24.859889531 244147.0
24.938671215 280645.0
25.017452899 315027.0
25.096234583 341393.0
25.175016267 357573.0
25.253797951 357504.0
25.332579635 344128.0
25.411361319 318233.0
25.490143003 283769.0
25.568924687 249653.0
25.647706371 214494.0
25.726488055 184462.0
25.805269739 158638.0
25.884051423 139614.0
25.962833107 125031.0
26.041614791 114837.0
26.120396475 106853.0
26.199178159 100499.0
26.277959843 96238.0
26.356741527 92400.0
26.435523211 89993.0
26.514304895 86995.0
26.593086579 84567.0
26.671868263 83287.0
26.750649947 80995.0
26.829431631 80095.0
26.908213315 79032.0
26.986994999 77407.0
27.065776683 76626.0
27.144558367 75660.0
27.223340051 74771.0
27.302121735 73824.0
27.380903419 73383.0
27.459685103 73283.0
27.538466787 72275.0
27.617248471 71834.0
27.696030155 71627.0
27.774811839 71517.0
27.853593523 70570.0
27.932375206 69758.0
28.011156890 70289.0
28.089938574 69552.0
28.168720258 69174.0
28.247501942 68805.0
28.326283626 68546.0
28.405065310 68164.0
28.483846994 68355.0
28.562628678 67443.0
28.641410362 67628.0
28.720192046 67622.0
28.798973730 67080.0
28.877755414 67553.0
28.956537098 66728.0
29.035318782 66338.0
29.114100466 65828.0
29.192882150 66432.0
29.271663834 66113.0
29.350445518 65894.0
29.429227202 66164.0
29.508008886 65573.0
29.586790570 65482.0
29.665572254 65674.0
29.744353938 65006.0
29.823135622 65061.0
29.901917306 65074.0
29.980698990 65268.0
30.059480674 65565.0
30.138262358 64549.0
30.217044042 64361.0
30.295825726 64674.0
30.374607410 64260.0
30.453389094 64318.0
30.532170778 64207.0
30.610952462 64418.0
30.689734146 64570.0
30.768515830 64030.0
30.847297514 63613.0
30.926079198 63552.0
31.004860882 63373.0
31.083642566 62900.0
31.162424250 63176.0
31.241205934 62115.0
31.319987618 62205.0
31.398769302 61524.0
31.477550986 61364.0
31.556332670 61826.0
31.635114354 61188.0
31.713896038 61061.0
31.792677722 60908.0
31.871459406 60919.0
31.950241090 61073.0
32.029022774 60196.0
32.107804458 59829.0
32.186586142 59955.0
32.265367826 59912.0
32.344149510 60052.0
32.422931194 59747.0
32.501712878 59371.0
32.580494562 59399.0
32.659276246 59897.0
32.738057930 59135.0
32.816839614 58941.0
32.895621298 58813.0
32.974402982 59486.0
33.053184666 58909.0
33.131966350 59122.0
33.210748034 58275.0
33.289529718 58694.0
33.368311402 58457.0
33.447093086 57926.0
33.525874770 58441.0
33.604656454 58337.0
33.683438138 58629.0
33.762219822 58214.0
33.841001506 57728.0
33.919783190 57433.0
33.998564874 58070.0
34.077346558 57626.0
34.156128242 57671.0
34.234909926 57911.0
34.313691610 57931.0
34.392473294 58163.0
34.471254978 58035.0
34.550036662 57568.0
34.628818346 57834.0
34.707600030 57897.0
34.786381714 58244.0
34.865163398 58094.0
34.943945082 58251.0
35.022726766 57835.0
35.101508450 58917.0
35.180290134 58367.0
35.259071818 58681.0
35.337853502 58837.0
35.416635186 59136.0
35.495416870 59059.0
35.574198554 59841.0
35.652980238 60370.0
35.731761922 60371.0
35.810543606 61201.0
35.889325290 62076.0
35.968106974 63372.0
36.046888658 64057.0
36.125670342 65304.0
36.204452026 66237.0
36.283233710 68083.0
36.362015394 69799.0
36.440797078 72487.0
36.519578762 75430.0
36.598360446 78928.0
36.677142130 81808.0
36.755923814 85033.0
36.834705498 87591.0
36.913487182 89920.0
36.992268866 92637.0
37.071050550 94193.0
37.149832234 97068.0
37.228613918 100119.0
37.307395602 104644.0
37.386177286 111481.0
37.464958970 118934.0
37.543740654 126700.0
37.622522338 133104.0
37.701304022 139118.0
37.780085706 142490.0
37.858867390 141446.0
37.937649074 138916.0
38.016430758 133429.0
38.095212442 127090.0
38.173994126 120645.0
38.252775810 115369.0
38.331557494 110479.0
38.410339178 106060.0
38.489120862 101867.0
38.567902546 96711.0
38.646684230 92470.0
38.725465914 88613.0
38.804247598 83583.0
38.883029282 79670.0
38.961810966 75560.0
39.040592650 72817.0
39.119374334 68834.0
39.198156018 67133.0
39.276937702 65497.0
39.355719386 63512.0
39.434501070 62282.0
39.513282754 60745.0
39.592064438 59756.0
39.670846122 59271.0
39.749627806 58381.0
39.828409490 57153.0
39.907191174 57199.0
39.985972858 56265.0
40.064754542 56314.0
40.143536226 55445.0
40.222317910 55173.0
40.301099594 54750.0
40.379881278 53927.0
40.458662962 54170.0
40.537444646 53844.0
40.616226330 53860.0
40.695008014 53244.0
40.773789698 52647.0
40.852571382 52643.0
40.931353066 52905.0
41.010134750 52634.0
41.088916433 52318.0
41.167698117 51558.0
41.246479801 51972.0
41.325261485 52347.0
41.404043169 51674.0
41.482824853 51592.0
41.561606537 51366.0
41.640388221 51718.0
41.719169905 51674.0
41.797951589 51829.0
41.876733273 51837.0
41.955514957 51472.0
42.034296641 51984.0
42.113078325 51430.0
42.191860009 51791.0
42.270641693 51451.0
42.349423377 51597.0
42.428205061 51725.0
42.506986745 51149.0
42.585768429 50990.0
42.664550113 51483.0
42.743331797 51175.0
42.822113481 51373.0
42.900895165 51825.0
42.979676849 51284.0
43.058458533 51561.0
43.137240217 51622.0
43.216021901 51260.0
43.294803585 51283.0
43.373585269 51888.0
43.452366953 51088.0
43.531148637 51132.0
43.609930321 51176.0
43.688712005 51019.0
43.767493689 50757.0
43.846275373 50912.0
43.925057057 50907.0
44.003838741 50665.0
44.082620425 50965.0
44.161402109 50760.0
44.240183793 50644.0
44.318965477 51085.0
44.397747161 50724.0
44.476528845 50486.0
44.555310529 51211.0
44.634092213 51242.0
44.712873897 50695.0
44.791655581 51013.0
44.870437265 51246.0
44.949218949 51298.0
45.028000633 51600.0
45.106782317 51589.0
45.185564001 51819.0
45.264345685 51896.0
45.343127369 52456.0
45.421909053 52380.0
45.500690737 52291.0
45.579472421 52413.0
45.658254105 52968.0
45.737035789 53613.0
45.815817473 53868.0
45.894599157 54196.0
45.973380841 54919.0
46.052162525 55589.0
46.130944209 56123.0
46.209725893 56781.0
46.288507577 58053.0
46.367289261 58683.0
46.446070945 60166.0
46.524852629 61103.0
46.603634313 62201.0
46.682415997 64138.0
46.761197681 66102.0
46.839979365 68052.0
46.918761049 71452.0
46.997542733 74324.0
47.076324417 78710.0
47.155106101 84654.0
47.233887785 91638.0
47.312669469 100498.0
47.391451153 111369.0
47.470232837 123744.0
47.549014521 138436.0
47.627796205 152303.0
47.706577889 166303.0
47.785359573 178413.0
47.864141257 185676.0
47.942922941 188595.0
48.021704625 186587.0
48.100486309 179540.0
48.179267993 168186.0
48.258049677 154664.0
48.336831361 140694.0
48.415613045 125715.0
48.494394729 112281.0
48.573176413 101671.0
48.651958097 91584.0
48.730739781 84439.0
48.809521465 78384.0
48.888303149 73299.0
48.967084833 70492.0
49.045866517 67713.0
49.124648201 65596.0
49.203429885 63844.0
49.282211569 62476.0
49.360993253 60642.0
49.439774937 59854.0
49.518556621 58447.0
49.597338305 57144.0
49.676119989 57043.0
49.754901673 56512.0
49.833683357 55147.0
49.912465041 54925.0
49.991246725 54941.0
50.070028409 54182.0
50.148810093 53546.0
50.227591777 53744.0
50.306373461 53165.0
50.385155145 52696.0
50.463936829 53098.0
50.542718513 52501.0
50.621500197 52450.0
50.700281881 52129.0
50.779063565 52249.0
50.857845249 52229.0
50.936626933 51820.0
51.015408617 51952.0
51.094190301 52165.0
51.172971985 52458.0
51.251753669 52441.0
51.330535353 52457.0
51.409317037 52224.0
51.488098721 52398.0
51.566880405 52775.0
51.645662089 53606.0
51.724443773 53536.0
51.803225457 53532.0
51.882007141 54168.0
51.960788825 54407.0
52.039570509 55452.0
52.118352193 55259.0
52.197133877 55756.0
52.275915561 57081.0
52.354697245 57503.0
52.433478929 58166.0
52.512260613 59250.0
52.591042297 59920.0
52.669823981 61804.0
52.748605665 62975.0
52.827387349 65228.0
52.906169033 68121.0
52.984950717 69800.0
53.063732401 73939.0
53.142514085 77903.0
53.221295769 83260.0
53.300077453 89381.0
53.378859137 97013.0
53.457640821 105560.0
53.536422505 115955.0
53.615204189 125880.0
53.693985873 135603.0
53.772767557 143987.0
53.851549241 149368.0
53.930330925 152621.0
54.009112609 153594.0
54.087894293 153084.0
54.166675977 150186.0
54.245457661 146898.0
54.324239344 144249.0
54.403021028 144498.0
54.481802712 144633.0
54.560584396 148029.0
54.639366080 150597.0
54.718147764 154585.0
54.796929448 157972.0
54.875711132 159908.0
54.954492816 159711.0
55.033274500 156456.0
55.112056184 150239.0
55.190837868 142893.0
55.269619552 133698.0
55.348401236 123774.0
55.427182920 113636.0
55.505964604 103934.0
55.584746288 95540.0
55.663527972 88332.0
55.742309656 82559.0
55.821091340 78451.0
55.899873024 73669.0
55.978654708 70417.0
56.057436392 68502.0
56.136218076 66299.0
56.214999760 64127.0
56.293781444 62436.0
56.372563128 61840.0
56.451344812 60414.0
56.530126496 58841.0
56.608908180 57376.0
56.687689864 56298.0
56.766471548 56095.0
56.845253232 55397.0
56.924034916 54652.0
57.002816600 54208.0
57.081598284 53364.0
57.160379968 53045.0
57.239161652 52623.0
57.317943336 52832.0
57.396725020 51615.0
57.475506704 51618.0
57.554288388 50827.0
57.633070072 51097.0
57.711851756 50349.0
57.790633440 50557.0
57.869415124 50340.0
57.948196808 50158.0
58.026978492 49548.0
58.105760176 49389.0
58.184541860 49497.0
58.263323544 49408.0
58.342105228 49039.0
58.420886912 48671.0
58.499668596 49500.0
58.578450280 49178.0
58.657231964 48961.0
58.736013648 48925.0
58.814795332 48490.0
58.893577016 49069.0
58.972358700 48434.0
59.051140384 48917.0
59.129922068 49045.0
59.208703752 48187.0
59.287485436 48768.0
59.366267120 49089.0
59.445048804 48698.0
59.523830488 48702.0
59.602612172 48984.0
59.681393856 48686.0
59.760175540 48896.0
59.838957224 49178.0
59.917738908 49505.0
59.996520592 49163.0
60.075302276 49512.0
60.154083960 49720.0
60.232865644 49888.0
60.311647328 50731.0
60.390429012 51422.0
60.469210696 51368.0
60.547992380 51194.0
60.626774064 51659.0
60.705555748 52199.0
60.784337432 53195.0
60.863119116 53541.0
60.941900800 53846.0
61.020682484 54957.0
61.099464168 55487.0
61.178245852 57300.0
61.257027536 58774.0
61.335809220 60540.0
61.414590904 62729.0
61.493372588 65853.0
61.572154272 69329.0
61.650935956 72574.0
61.729717640 76669.0
61.808499324 80696.0
61.887281008 86169.0
61.966062692 91408.0
62.044844376 97432.0
62.123626060 103654.0
62.202407744 110007.0
62.281189428 116941.0
62.359971112 122741.0
62.438752796 128363.0
62.517534480 132848.0
62.596316164 136190.0
62.675097848 135710.0
62.753879532 133414.0
62.832661216 130099.0
62.911442900 124892.0
62.990224584 118166.0
63.069006268 111044.0
63.147787952 102845.0
63.226569636 95625.0
63.305351320 89539.0
63.384133004 83622.0
63.462914688 78880.0
63.541696372 74182.0
63.620478056 71237.0
63.699259740 67953.0
63.778041424 65697.0
63.856823108 63753.0
63.935604792 61475.0
64.014386476 60130.0
64.093168160 58453.0
64.171949844 57616.0
64.250731528 55495.0
64.329513212 55021.0
64.408294896 54380.0
64.487076580 53563.0
64.565858264 52673.0
64.644639948 51742.0
64.723421632 52107.0
64.802203316 50817.0
64.880985000 50990.0
64.959766684 49894.0
65.038548368 49327.0
65.117330052 49372.0
65.196111736 48745.0
65.274893420 48727.0
65.353675104 48728.0
65.432456788 48031.0
65.511238472 48019.0
65.590020156 48113.0
65.668801840 47765.0
65.747583524 47703.0
65.826365208 47750.0
65.905146892 47635.0
65.983928576 47758.0
66.062710260 47538.0
66.141491944 47736.0
66.220273628 47070.0
66.299055312 47243.0
66.377836996 47636.0
66.456618680 47239.0
66.535400364 47739.0
66.614182048 47348.0
66.692963732 47979.0
66.771745416 47749.0
66.850527100 47982.0
66.929308784 48007.0
67.008090468 48136.0
67.086872152 48609.0
67.165653836 49203.0
67.244435520 49082.0
67.323217204 49840.0
67.401998888 49630.0
67.480780571 50642.0
67.559562255 50410.0
67.638343939 51566.0
67.717125623 52689.0
67.795907307 53738.0
67.874688991 54461.0
67.953470675 55875.0
68.032252359 58128.0
68.111034043 60109.0
68.189815727 62830.0
68.268597411 65969.0
68.347379095 69042.0
68.426160779 71984.0
68.504942463 75520.0
68.583724147 78574.0
68.662505831 80146.0
68.741287515 82436.0
68.820069199 83260.0
68.898850883 83164.0
68.977632567 82428.0
69.056414251 81166.0
69.135195935 79686.0
69.213977619 78575.0
69.292759303 77564.0
69.371540987 76274.0
69.450322671 76699.0
69.529104355 77382.0
69.607886039 77663.0
69.686667723 79169.0
69.765449407 81386.0
69.844231091 83288.0
69.923012775 85110.0
70.001794459 86581.0
70.080576143 87641.0
70.159357827 88188.0
70.238139511 87623.0
70.316921195 85782.0
70.395702879 83465.0
70.474484563 80731.0
70.553266247 77202.0
70.632047931 73493.0
70.710829615 69764.0
70.789611299 67024.0
70.868392983 62956.0
70.947174667 60791.0
71.025956351 58621.0
71.104738035 56007.0
71.183519719 54770.0
71.262301403 53351.0
71.341083087 51814.0
71.419864771 51558.0
71.498646455 51035.0
71.577428139 50077.0
71.656209823 50289.0
71.734991507 49588.0
71.813773191 49424.0
71.892554875 48957.0
71.971336559 49103.0
72.050118243 48679.0
72.128899927 48776.0
72.207681611 48634.0
72.286463295 49012.0
72.365244979 48551.0
72.444026663 48652.0
72.522808347 48463.0
72.601590031 48433.0
72.680371715 48701.0
72.759153399 49138.0
72.837935083 49268.0
72.916716767 49243.0
72.995498451 49454.0
73.074280135 49471.0
73.153061819 49911.0
73.231843503 50565.0
73.310625187 50297.0
73.389406871 51713.0
73.468188555 52402.0
73.546970239 52512.0
73.625751923 53170.0
73.704533607 54710.0
73.783315291 55860.0
73.862096975 57210.0
73.940878659 59033.0
74.019660343 61178.0
74.098442027 62668.0
74.177223711 65359.0
74.256005395 68533.0
74.334787079 71127.0
74.413568763 75057.0
74.492350447 80130.0
74.571132131 83725.0
74.649913815 89304.0
74.728695499 94528.0
74.807477183 99580.0
74.886258867 104028.0
74.965040551 106717.0
75.043822235 109064.0
75.122603919 109210.0
75.201385603 109036.0
75.280167287 106542.0
75.358948971 103237.0
75.437730655 99654.0
75.516512339 96701.0
75.595294023 92844.0
75.674075707 89829.0
75.752857391 86333.0
75.831639075 82827.0
75.910420759 81180.0
75.989202443 78361.0
76.067984127 75430.0
76.146765811 73891.0
76.225547495 71402.0
76.304329179 68342.0
76.383110863 66496.0
76.461892547 63871.0
76.540674231 60716.0
76.619455915 59042.0
76.698237599 56985.0
76.777019283 55326.0
76.855800967 53880.0
76.934582651 52825.0
77.013364335 51634.0
77.092146019 50288.0
77.170927703 50144.0
77.249709387 48892.0
77.328491071 48750.0
77.407272755 48293.0
77.486054439 47593.0
77.564836123 46727.0
77.643617807 46864.0
77.722399491 46947.0
77.801181175 46120.0
77.879962859 46306.0
77.958744543 46179.0
78.037526227 45589.0
78.116307911 45323.0
78.195089595 45246.0
78.273871279 45478.0
78.352652963 44858.0
78.431434647 45243.0
78.510216331 44988.0
78.588998015 44722.0
78.667779699 44586.0
78.746561383 44784.0
78.825343067 44272.0
78.904124751 45218.0
78.982906435 44650.0
79.061688119 44942.0
79.140469803 44701.0
79.219251487 44659.0
79.298033171 44526.0
79.376814855 44619.0
79.455596539 45170.0
79.534378223 44994.0
79.613159907 44531.0
79.691941591 45219.0
79.770723275 45426.0
79.849504959 45116.0
79.928286643 45644.0
80.007068327 45943.0
80.085850011 45617.0
80.164631695 46194.0
80.243413379 46513.0
80.322195063 46595.0
80.400976747 47575.0
80.479758431 47516.0
80.558540115 48135.0
80.637321799 48218.0
80.716103482 48599.0
80.794885166 49322.0
80.873666850 49730.0
80.952448534 49851.0
81.031230218 50364.0
81.110011902 50598.0
81.188793586 50768.0
81.267575270 52014.0
81.346356954 52606.0
81.425138638 53578.0
81.503920322 54370.0
81.582702006 55267.0
81.661483690 57224.0
81.740265374 59515.0
81.819047058 61495.0
81.897828742 63952.0
81.976610426 67306.0
82.055392110 70188.0
82.134173794 73358.0
82.212955478 76412.0
82.291737162 80224.0
82.370518846 83621.0
82.449300530 86207.0
82.528082214 88280.0
82.606863898 90638.0
82.685645582 90969.0
82.764427266 91537.0
82.843208950 91169.0
82.921990634 89229.0
83.000772318 87584.0
83.079554002 85359.0
83.158335686 81737.0
83.237117370 78700.0
83.315899054 75326.0
83.394680738 72470.0
83.473462422 69672.0
83.552244106 66520.0
83.631025790 62564.0
83.709807474 60734.0
83.788589158 58639.0
83.867370842 56870.0
83.946152526 55257.0
84.024934210 53667.0
84.103715894 52658.0
84.182497578 51326.0
84.261279262 50407.0
84.340060946 49518.0
84.418842630 48551.0
84.497624314 48510.0
84.576405998 47529.0
84.655187682 47405.0
84.733969366 46984.0
84.812751050 46795.0
84.891532734 46095.0
84.970314418 45984.0
85.049096102 46048.0
85.127877786 45677.0
85.206659470 45591.0
85.285441154 45395.0
85.364222838 45694.0
85.443004522 44853.0
85.521786206 44815.0
85.600567890 44851.0
85.679349574 44111.0
85.758131258 44408.0
85.836912942 44343.0
85.915694626 43965.0
85.994476310 43601.0
86.073257994 44116.0
86.152039678 44047.0
86.230821362 44097.0
86.309603046 43732.0
86.388384730 43865.0
86.467166414 43782.0
86.545948098 43692.0
86.624729782 43482.0
86.703511466 43314.0
86.782293150 43582.0
86.861074834 43221.0
86.939856518 43126.0
87.018638202 43362.0
87.097419886 42981.0
87.176201570 43131.0
87.254983254 43232.0
87.333764938 43131.0
87.412546622 43370.0
87.491328306 42962.0
87.570109990 42255.0
87.648891674 42963.0
87.727673358 42925.0
87.806455042 42939.0
87.885236726 42967.0
87.964018410 42852.0
88.042800094 42791.0
88.121581778 42856.0
88.200363462 42846.0
88.279145146 42613.0
88.357926830 42483.0
88.436708514 42558.0
88.515490198 42725.0
88.594271882 42774.0
88.673053566 42970.0
88.751835250 42601.0
88.830616934 43039.0
88.909398618 42736.0
88.988180302 42797.0
89.066961986 43042.0
89.145743670 43363.0
89.224525354 42972.0
89.303307038 43118.0
89.382088722 42623.0
89.460870406 43099.0
89.539652090 43209.0
89.618433774 42881.0
89.697215458 43228.0
89.775997142 43387.0
89.854778826 43337.0
89.933560510 43583.0
90.012342194 43260.0
90.091123878 43303.0
90.169905562 43293.0
90.248687246 43494.0
90.327468930 43707.0
90.406250614 43750.0
90.485032298 43463.0
90.563813982 43963.0
90.642595666 43353.0
90.721377350 43726.0
90.800159034 43588.0
90.878940718 43903.0
90.957722402 44016.0
91.036504086 44539.0
91.115285770 44258.0
91.194067454 44672.0
91.272849138 44642.0
91.351630822 44633.0
91.430412506 44621.0
91.509194190 44781.0
91.587975874 45386.0
91.666757558 45671.0
91.745539242 45406.0
91.824320926 45243.0
91.903102610 45632.0
91.981884294 45989.0
92.060665978 46426.0
92.139447662 46797.0
92.218229346 47000.0
92.297011030 47074.0
92.375792714 47302.0
92.454574398 47671.0
92.533356082 48317.0
92.612137766 48868.0
92.690919450 49476.0
92.769701134 49923.0
92.848482818 51113.0
92.927264502 51646.0
93.006046186 51868.0
93.084827870 53076.0
93.163609554 53744.0
93.242391238 54781.0
93.321172922 55601.0
93.399954606 57225.0
93.478736290 57832.0
93.557517974 59114.0
93.636299658 60420.0
93.715081342 62475.0
93.793863026 63863.0
93.872644709 65084.0
93.951426393 66712.0
94.030208077 68612.0
94.108989761 69959.0
94.187771445 70480.0
94.266553129 71731.0
94.345334813 72421.0
94.424116497 73923.0
94.502898181 73747.0
94.581679865 74906.0
94.660461549 75031.0
94.739243233 75049.0
94.818024917 75162.0
94.896806601 74927.0
94.975588285 74490.0
95.054369969 74286.0
95.133151653 73102.0
95.211933337 72645.0
95.290715021 71440.0
95.369496705 69726.0
95.448278389 68430.0
95.527060073 66880.0
95.605841757 64997.0
95.684623441 63330.0
95.763405125 62284.0
95.842186809 60185.0
95.920968493 59164.0
95.999750177 57661.0
96.078531861 56899.0
96.157313545 55666.0
96.236095229 55089.0
96.314876913 54091.0
96.393658597 53695.0
96.472440281 52987.0
96.551221965 52797.0
96.630003649 52612.0
96.708785333 52441.0
96.787567017 51964.0
96.866348701 51991.0
96.945130385 51674.0
97.023912069 52029.0
97.102693753 51621.0
97.181475437 51623.0
97.260257121 52142.0
97.339038805 52207.0
97.417820489 53028.0
97.496602173 53115.0
97.575383857 53410.0
97.654165541 53671.0
97.732947225 54438.0
97.811728909 54935.0
97.890510593 55472.0
97.969292277 56993.0
98.048073961 57323.0
98.126855645 58377.0
98.205637329 59464.0
98.284419013 60328.0
98.363200697 60630.0
98.441982381 61673.0
98.520764065 61976.0
98.599545749 61783.0
98.678327433 61794.0
98.757109117 61493.0
98.835890801 62059.0
98.914672485 61458.0
98.993454169 61409.0
99.072235853 61116.0
99.151017537 60783.0
99.229799221 60724.0
99.308580905 60972.0
99.387362589 61227.0
99.466144273 61311.0
99.544925957 61421.0
99.623707641 61492.0
99.702489325 61661.0
99.781271009 62001.0
99.860052693 61977.0
99.938834377 61768.0
100.017616061 62274.0
100.096397745 61345.0
100.175179429 61607.0
100.253961113 61578.0
100.332742797 61610.0
100.411524481 61452.0
100.490306165 61751.0
100.569087849 60953.0
100.647869533 60936.0
100.726651217 61279.0
100.805432901 60833.0
100.884214585 60883.0
100.962996269 60940.0
101.041777953 60357.0
101.120559637 60092.0
101.199341321 60364.0
101.278123005 59766.0
101.356904689 59328.0
101.435686373 58777.0
101.514468057 58800.0
101.593249741 58108.0
101.672031425 57512.0
101.750813109 56851.0
101.829594793 56536.0
101.908376477 55891.0
101.987158161 55908.0
102.065939845 55289.0
102.144721529 55091.0
102.223503213 54040.0
102.302284897 53708.0
102.381066581 53400.0
102.459848265 53123.0
102.538629949 53705.0
102.617411633 53467.0
102.696193317 52812.0
102.774975001 53174.0
102.853756685 52862.0
102.932538369 52401.0
103.011320053 52556.0
103.090101737 52448.0
103.168883421 52683.0
103.247665105 52267.0
103.326446789 52603.0
103.405228473 52548.0
103.484010157 52738.0
103.562791841 52546.0
103.641573525 52908.0
103.720355209 52624.0
103.799136893 53010.0
103.877918577 53137.0
103.956700261 53022.0
104.035481945 53002.0
104.114263629 52487.0
104.193045313 52837.0
104.271826997 52766.0
104.350608681 53198.0
104.429390365 53315.0
104.508172049 53524.0
104.586953733 53314.0
104.665735417 53159.0
104.744517101 53975.0
104.823298785 53424.0
104.902080469 53674.0
104.980862153 54247.0
105.059643837 54196.0
105.138425521 54437.0
105.217207205 54854.0
105.295988889 54439.0
105.374770573 55351.0
105.453552257 55100.0
105.532333941 54955.0
105.611115625 56205.0
105.689897309 55934.0
105.768678993 56805.0
105.847460677 57216.0
105.926242361 57236.0
106.005024045 57102.0
106.083805729 57769.0
106.162587413 59059.0
106.241369097 59367.0
106.320150781 60736.0
106.398932465 61845.0
106.477714149 62364.0
106.556495833 63876.0
106.635277517 65122.0
106.714059201 66232.0
106.792840885 68530.0
106.871622569 69422.0
106.950404253 71197.0
107.029185937 72851.0
107.107967620 73776.0
107.186749304 75152.0
107.265530988 76989.0
107.344312672 78014.0
107.423094356 79007.0
107.501876040 79336.0
107.580657724 79990.0
107.659439408 80623.0
107.738221092 81154.0
107.817002776 80275.0
107.895784460 80661.0
107.974566144 80674.0
108.053347828 79479.0
108.132129512 79003.0
108.210911196 79275.0
108.289692880 78109.0
108.368474564 77860.0
108.447256248 77568.0
108.526037932 77487.0
108.604819616 76950.0
108.683601300 77283.0
108.762382984 76375.0
108.841164668 76031.0
108.919946352 76054.0
108.998728036 75512.0
109.077509720 75020.0
109.156291404 75004.0
109.235073088 74009.0
109.313854772 73307.0
109.392636456 72288.0
109.471418140 70421.0
109.550199824 70718.0
109.628981508 68965.0
109.707763192 68845.0
109.786544876 67442.0
109.865326560 66771.0
109.944108244 66121.0
110.022889928 65016.0
110.101671612 64524.0
110.180453296 64327.0
110.259234980 63328.0
110.338016664 63412.0
110.416798348 63272.0
110.495580032 62753.0
110.574361716 62911.0
110.653143400 62053.0
110.731925084 62336.0
110.810706768 61870.0
110.889488452 63071.0
110.968270136 61807.0
111.047051820 61942.0
111.125833504 62678.0
111.204615188 62372.0
111.283396872 62188.0
111.362178556 62689.0
111.440960240 63195.0
111.519741924 63345.0
111.598523608 63181.0
111.677305292 63312.0
111.756086976 63743.0
111.834868660 64282.0
111.913650344 64865.0
111.992432028 64847.0
112.071213712 65675.0
112.149995396 66588.0
112.228777080 66758.0
112.307558764 66874.0
112.386340448 68105.0
112.465122132 69060.0
112.543903816 70174.0
112.622685500 70556.0
112.701467184 71433.0
112.780248868 72614.0
112.859030552 73928.0
112.937812236 75191.0
113.016593920 76849.0
113.095375604 77807.0
113.174157288 79442.0
113.252938972 81077.0
113.331720656 82830.0
113.410502340 85300.0
113.489284024 86512.0
113.568065708 88892.0
113.646847392 89845.0
113.725629076 91369.0
113.804410760 92850.0
113.883192444 93555.0
113.961974128 95238.0
114.040755812 96317.0
114.119537496 95838.0
114.198319180 96520.0
114.277100864 96928.0
114.355882548 96627.0
114.434664232 96822.0
114.513445916 95924.0
114.592227600 95829.0
114.671009284 95314.0
114.749790968 94501.0
114.828572652 93517.0
114.907354336 92853.0
114.986136020 91500.0
115.064917704 89971.0
115.143699388 89378.0
115.222481072 88467.0
115.301262756 87373.0
115.380044440 85282.0
115.458826124 84252.0
115.537607808 83555.0
115.616389492 82494.0
115.695171176 80905.0
115.773952860 80273.0
115.852734544 79012.0
115.931516228 77896.0
116.010297912 77716.0
116.089079596 77124.0
116.167861280 76089.0
116.246642964 75968.0
116.325424648 75273.0
116.404206332 75317.0
116.482988016 75346.0
116.561769700 75408.0
116.640551384 75258.0
116.719333068 75286.0
116.798114752 74998.0
116.876896436 76417.0
116.955678120 75813.0
117.034459804 77266.0
117.113241488 77727.0
117.192023172 78166.0
117.270804856 79494.0
117.349586540 80203.0
117.428368224 80782.0
117.507149908 82187.0
117.585931592 84101.0
117.664713276 85221.0
117.743494960 87413.0
117.822276644 88516.0
117.901058328 90713.0
117.979840012 92736.0
118.058621696 94856.0
118.137403380 96961.0
118.216185064 98805.0
118.294966748 100574.0
118.373748432 102752.0
118.452530116 103566.0
118.531311800 104862.0
118.610093484 106504.0
118.688875168 107123.0
118.767656852 107242.0
118.846438536 108436.0
118.925220220 108073.0
119.004001904 108201.0
119.082783588 106856.0
119.161565272 106539.0
119.240346956 105723.0
119.319128640 104625.0
119.397910324 104170.0
119.476692008 103197.0
119.555473692 103032.0
119.634255376 101682.0
119.713037060 101112.0
119.791818744 100248.0
119.870600428 99260.0
119.949382112 99399.0
120.028163796 97810.0
120.106945480 97001.0
120.185727164 96616.0
120.264508847 96428.0
120.343290531 95413.0
120.422072215 95340.0
120.500853899 95157.0
120.579635583 94454.0
120.658417267 95305.0
120.737198951 94292.0
120.815980635 94474.0
120.894762319 93818.0
120.973544003 94081.0
121.052325687 95192.0
121.131107371 95511.0
121.209889055 95583.0
121.288670739 96416.0
121.367452423 96650.0
121.446234107 97102.0
121.525015791 98578.0
121.603797475 99157.0
121.682579159 99695.0
121.761360843 101312.0
121.840142527 102027.0
121.918924211 102784.0
121.997705895 103164.0
122.076487579 104226.0
122.155269263 104492.0
122.234050947 104766.0
122.312832631 105383.0
122.391614315 105119.0
122.470395999 105045.0
122.549177683 104596.0
122.627959367 103989.0
122.706741051 103436.0
122.785522735 102610.0
122.864304419 101418.0
122.943086103 100986.0
123.021867787 98513.0
123.100649471 98368.0
123.179431155 96363.0
123.258212839 96114.0
123.336994523 93664.0
123.415776207 92411.0
123.494557891 90903.0
123.573339575 90141.0
123.652121259 88600.0
123.730902943 88201.0
123.809684627 86955.0
123.888466311 86084.0
123.967247995 85618.0
124.046029679 84112.0
124.124811363 83609.0
124.203593047 82755.0
124.282374731 82455.0
124.361156415 81942.0
124.439938099 82089.0
124.518719783 80852.0
124.597501467 80910.0
124.676283151 80228.0
124.755064835 80200.0
124.833846519 80131.0
124.912628203 79500.0
124.991409887 79607.0
125.070191571 79139.0
125.148973255 78520.0
125.227754939 78262.0
125.306536623 77937.0
125.385318307 78182.0
125.464099991 78314.0
125.542881675 78390.0
125.621663359 78371.0
125.700445043 77896.0
125.779226727 77807.0
125.858008411 78128.0
125.936790095 78028.0
126.015571779 77430.0
126.094353463 77834.0
126.173135147 77767.0
126.251916831 77700.0
126.330698515 78037.0
126.409480199 77969.0
126.488261883 77869.0
126.567043567 78251.0
126.645825251 78139.0
126.724606935 78296.0
126.803388619 77905.0
126.882170303 78583.0
126.960951987 78361.0
127.039733671 78285.0
127.118515355 78250.0
127.197297039 78463.0
127.276078723 78234.0
127.354860407 78456.0
127.433642091 79469.0
127.512423775 78612.0
127.591205459 79276.0
127.669987143 79563.0
127.748768827 79419.0
127.827550511 79729.0
127.906332195 79766.0
127.985113879 80002.0
128.063895563 80464.0
128.142677247 80985.0
128.221458931 80555.0
128.300240615 81060.0
128.379022299 81739.0
128.457803983 81700.0
128.536585667 82208.0
128.615367351 82283.0
128.694149035 82538.0
128.772930719 83145.0
128.851712403 83587.0
128.930494087 83782.0
129.009275771 84095.0
129.088057455 85585.0
129.166839139 85804.0
129.245620823 86014.0
129.324402507 86555.0
129.403184191 87176.0
129.481965875 87402.0
129.560747559 89242.0
129.639529243 89154.0
129.718310927 90238.0
129.797092611 91367.0
129.875874295 92541.0
129.954655979 92957.0
130.033437663 94620.0
130.112219347 95358.0
130.191001031 96960.0
130.269782715 97186.0
130.348564399 98776.0
130.427346083 99746.0
130.506127767 100565.0
130.584909451 101589.0
130.663691135 101958.0
130.742472819 102608.0
130.821254503 103306.0
130.900036187 104732.0
130.978817871 105023.0
131.057599555 104719.0
131.136381239 104953.0
131.215162923 104728.0
131.293944607 105482.0
131.372726291 104691.0
131.451507975 105126.0
131.530289659 104270.0
131.609071343 104006.0
131.687853027 103577.0
131.766634711 103390.0
131.845416395 102180.0
131.924198079 101610.0
132.002979763 100371.0
132.081761447 99835.0
132.160543131 99973.0
132.239324815 99196.0
132.318106499 97893.0
132.396888183 97697.0
132.475669867 97122.0
132.554451551 97296.0
132.633233235 95819.0
132.712014919 95673.0
132.790796603 95386.0
132.869578287 94665.0
132.948359971 94188.0
133.027141655 93584.0
133.105923339 93513.0
133.184705023 92707.0
133.263486707 92545.0
133.342268391 92268.0
133.421050075 92188.0
133.499831758 92341.0
133.578613442 92090.0
133.657395126 91595.0
133.736176810 91807.0
133.814958494 90956.0
133.893740178 91656.0
133.972521862 91334.0
134.051303546 91307.0
134.130085230 91407.0
134.208866914 91891.0
134.287648598 91764.0
134.366430282 91762.0
134.445211966 91929.0
134.523993650 92406.0
134.602775334 92205.0
134.681557018 92838.0
134.760338702 92892.0
134.839120386 93135.0
134.917902070 92976.0
134.996683754 93329.0
135.075465438 94370.0
135.154247122 94319.0
135.233028806 94951.0
135.311810490 95594.0
135.390592174 95664.0
135.469373858 96118.0
135.548155542 97143.0
135.626937226 97598.0
135.705718910 98528.0
135.784500594 98995.0
135.863282278 99261.0
135.942063962 99793.0
136.020845646 101096.0
136.099627330 102075.0
136.178409014 102680.0
136.257190698 103396.0
136.335972382 104524.0
136.414754066 105205.0
136.493535750 106521.0
136.572317434 107527.0
136.651099118 108869.0
136.729880802 109697.0
136.808662486 109373.0
136.887444170 110906.0
136.966225854 111999.0
137.045007538 112893.0
137.123789222 113582.0
137.202570906 113779.0
137.281352590 114582.0
137.360134274 115239.0
137.438915958 114706.0
137.517697642 114361.0
137.596479326 115568.0
137.675261010 115079.0
137.754042694 115410.0
137.832824378 115005.0
137.911606062 113592.0
137.990387746 114183.0
138.069169430 113544.0
138.147951114 113221.0
138.226732798 112509.0
138.305514482 111830.0
138.384296166 110879.0
138.463077850 110245.0
138.541859534 108971.0
138.620641218 108345.0
138.699422902 108046.0
138.778204586 106677.0
138.856986270 105694.0
138.935767954 105611.0
139.014549638 104948.0
139.093331322 103407.0
139.172113006 103104.0
139.250894690 102121.0
139.329676374 101956.0
139.408458058 101182.0
139.487239742 100715.0
139.566021426 100307.0
139.644803110 100319.0
139.723584794 99390.0
139.802366478 98897.0
139.881148162 99088.0
139.959929846 97894.0
140.038711530 97820.0
