8.092521120 7721.0
8.197563352 8043.0
8.302605585 7784.0
8.407647817 8022.0
8.512690050 7934.0
8.617732282 7837.0
8.722774515 8067.0
8.827816747 8163.0
8.932858980 7938.0
9.037901212 8088.0
9.142943444 7913.0
9.247985677 7952.0
9.353027909 8025.0
9.458070142 8007.0
9.563112374 7868.0
9.668154607 8181.0
9.773196839 8192.0
9.878239072 7953.0
9.983281304 7829.0
10.088323536 7984.0
10.193365769 7907.0
10.298408001 7954.0
10.403450234 7865.0
10.508492466 7994.0
10.613534699 7877.0
10.718576931 8318.0
10.823619164 7704.0
10.928661396 7962.0
11.033703628 8048.0
11.138745861 8130.0
11.243788093 8218.0
11.348830326 8309.0
11.453872558 8113.0
11.558914791 8078.0
11.663957023 8113.0
11.768999256 8078.0
11.874041488 8296.0
11.979083720 8110.0
12.084125953 8178.0
12.189168185 8175.0
12.294210418 8313.0
12.399252650 8142.0
12.504294883 8039.0
12.609337115 7907.0
12.714379348 8153.0
12.819421580 8171.0
12.924463812 8249.0
13.029506045 8066.0
13.134548277 8112.0
13.239590510 8307.0
13.344632742 8055.0
13.449674975 8140.0
13.554717207 8193.0
13.659759440 8055.0
13.764801672 8110.0
13.869843904 8069.0
13.974886137 8050.0
14.079928369 8299.0
14.184970602 8058.0
14.290012834 8102.0
14.395055067 7885.0
14.500097299 8210.0
14.605139532 7795.0
14.710181764 7883.0
14.815223996 7961.0
14.920266229 8109.0
15.025308461 8193.0
15.130350694 8065.0
15.235392926 7899.0
15.340435159 7820.0
15.445477391 7801.0
15.550519624 7740.0
15.655561856 7690.0
15.760604088 7738.0
15.865646321 7901.0
15.970688553 7786.0
16.075730786 7863.0
16.180773018 7779.0
16.285815251 7599.0
16.390857483 7774.0
16.495899716 7767.0
16.600941948 7786.0
16.705984180 7437.0
16.811026413 7558.0
16.916068645 7805.0
17.021110878 7695.0
17.126153110 7519.0
17.231195343 7403.0
17.336237575 7381.0
17.441279808 7588.0
17.546322040 7694.0
17.651364272 8026.0
17.756406505 7454.0
17.861448737 7645.0
17.966490970 7652.0
18.071533202 7264.0
18.176575435 7525.0
18.281617667 7439.0
18.386659900 7347.0
18.491702132 7522.0
18.596744364 7408.0
18.701786597 7290.0
18.806828829 7347.0
18.911871062 7331.0
19.016913294 7456.0
19.121955527 7439.0
19.226997759 7109.0
19.332039992 7135.0
19.437082224 7362.0
19.542124456 7347.0
19.647166689 7220.0
19.752208921 7358.0
19.857251154 7353.0
19.962293386 7239.0
20.067335619 7485.0
20.172377851 7546.0
20.277420084 7532.0
20.382462316 7394.0
20.487504548 7188.0
20.592546781 7525.0
20.697589013 7363.0
20.802631246 7111.0
20.907673478 7110.0
21.012715711 7112.0
21.117757943 7241.0
21.222800176 7428.0
21.327842408 7576.0
21.432884640 7330.0
21.537926873 7512.0
21.642969105 7199.0
21.748011338 7546.0
21.853053570 7261.0
21.958095803 7643.0
22.063138035 7286.0
22.168180268 7400.0
22.273222500 7711.0
22.378264732 7479.0
22.483306965 7643.0
22.588349197 7630.0
22.693391430 7582.0
22.798433662 7818.0
22.903475895 7881.0
23.008518127 7776.0
23.113560360 7903.0
23.218602592 7857.0
23.323644824 8190.0
23.428687057 8085.0
23.533729289 8494.0
23.638771522 8582.0
23.743813754 8746.0
23.848855987 9118.0
23.953898219 9577.0
24.058940452 10387.0
24.163982684 10926.0
24.269024916 11600.0
24.374067149 13111.0
24.479109381 14684.0
24.584151614 16544.0
24.689193846 18724.0
24.794236079 21071.0
24.899278311 23404.0
25.004320544 25214.0
25.109362776 26618.0
25.214405008 27193.0
25.319447241 27211.0
25.424489473 26221.0
25.529531706 24651.0
25.634573938 22587.0
25.739616171 20601.0
25.844658403 17654.0
25.949700636 16000.0
26.054742868 14383.0
26.159785100 12876.0
26.264827333 11937.0
26.369869565 11021.0
26.474911798 10152.0
26.579954030 9735.0
26.684996263 9278.0
26.790038495 8964.0
26.895080728 8840.0
27.000122960 8490.0
27.105165192 8335.0
27.210207425 8128.0
27.315249657 8021.0
27.420291890 7759.0
27.525334122 7666.0
27.630376355 7704.0
27.735418587 7442.0
27.840460820 7512.0
27.945503052 7248.0
28.050545284 7198.0
28.155587517 7386.0
28.260629749 7305.0
28.365671982 7197.0
28.470714214 7258.0
28.575756447 7100.0
28.680798679 7199.0
28.785840912 6999.0
28.890883144 6766.0
28.995925376 6977.0
29.100967609 7058.0
29.206009841 7034.0
29.311052074 6883.0
29.416094306 7165.0
29.521136539 6934.0
29.626178771 6920.0
29.731221004 6743.0
29.836263236 6973.0
29.941305468 6906.0
30.046347701 6901.0
30.151389933 7074.0
30.256432166 6704.0
30.361474398 6858.0
30.466516631 6879.0
30.571558863 6968.0
30.676601096 6877.0
30.781643328 6718.0
30.886685560 6692.0
30.991727793 6737.0
31.096770025 6730.0
31.201812258 6523.0
31.306854490 6786.0
31.411896723 6618.0
31.516938955 6616.0
31.621981188 6405.0
31.727023420 6641.0
31.832065652 6458.0
31.937107885 6263.0
32.042150117 6313.0
32.147192350 6186.0
32.252234582 6256.0
32.357276815 6293.0
32.462319047 6178.0
32.567361280 6106.0
32.672403512 6398.0
32.777445744 6255.0
32.882487977 6128.0
32.987530209 6216.0
33.092572442 6110.0
33.197614674 6306.0
33.302656907 6181.0
33.407699139 6215.0
33.512741372 6105.0
33.617783604 6202.0
33.722825836 6251.0
33.827868069 6016.0
33.932910301 6100.0
34.037952534 6134.0
34.142994766 6066.0
34.248036999 6225.0
34.353079231 6034.0
34.458121464 5965.0
34.563163696 6095.0
34.668205928 6178.0
34.773248161 6222.0
34.878290393 6017.0
34.983332626 6160.0
35.088374858 6138.0
35.193417091 6221.0
35.298459323 6263.0
35.403501556 6324.0
35.508543788 6311.0
35.613586020 6311.0
35.718628253 6552.0
35.823670485 6723.0
35.928712718 6763.0
36.033754950 6855.0
36.138797183 6854.0
36.243839415 7346.0
36.348881648 7551.0
36.453923880 7665.0
36.558966112 8010.0
36.664008345 8195.0
36.769050577 8623.0
36.874092810 8824.0
36.979135042 9255.0
37.084177275 9619.0
37.189219507 9983.0
37.294261740 10605.0
37.399303972 10926.0
37.504346204 11600.0
37.609388437 11830.0
37.714430669 12292.0
37.819472902 12532.0
37.924515134 12723.0
38.029557367 12334.0
38.134599599 12184.0
38.239641832 11544.0
38.344684064 11098.0
38.449726296 10558.0
38.554768529 10085.0
38.659810761 9469.0
38.764852994 9043.0
38.869895226 8610.0
38.974937459 8188.0
39.079979691 7771.0
39.185021924 7367.0
39.290064156 7181.0
39.395106388 6786.0
39.500148621 6719.0
39.605190853 6470.0
39.710233086 6491.0
39.815275318 6356.0
39.920317551 6112.0
40.025359783 6094.0
40.130402016 6028.0
40.235444248 6090.0
40.340486480 5952.0
40.445528713 5905.0
40.550570945 5798.0
40.655613178 5576.0
40.760655410 5507.0
40.865697643 5641.0
40.970739875 5639.0
41.075782107 5658.0
41.180824340 5638.0
41.285866572 5496.0
41.390908805 5517.0
41.495951037 5582.0
41.600993270 5493.0
41.706035502 5536.0
41.811077735 5647.0
41.916119967 5587.0
42.021162199 5495.0
42.126204432 5394.0
42.231246664 5617.0
42.336288897 5612.0
42.441331129 5413.0
42.546373362 5676.0
42.651415594 5569.0
42.756457827 5533.0
42.861500059 5307.0
42.966542291 5606.0
43.071584524 5489.0
43.176626756 5561.0
43.281668989 5531.0
43.386711221 5568.0
43.491753454 5314.0
43.596795686 5487.0
43.701837919 5497.0
43.806880151 5433.0
43.911922383 5641.0
44.016964616 5552.0
44.122006848 5466.0
44.227049081 5528.0
44.332091313 5535.0
44.437133546 5411.0
44.542175778 5361.0
44.647218011 5540.0
44.752260243 5441.0
44.857302475 5754.0
44.962344708 5595.0
45.067386940 5603.0
45.172429173 5707.0
45.277471405 5633.0
45.382513638 5723.0
45.487555870 5848.0
45.592598103 5894.0
45.697640335 5903.0
45.802682567 5779.0
45.907724800 5998.0
46.012767032 6143.0
46.117809265 6012.0
46.222851497 6327.0
46.327893730 6371.0
46.432935962 6687.0
46.537978195 6674.0
46.643020427 7215.0
46.748062659 7584.0
46.853104892 8018.0
46.958147124 8389.0
47.063189357 9063.0
47.168231589 10031.0
47.273273822 10904.0
47.378316054 11539.0
47.483358287 12604.0
47.588400519 13541.0
47.693442751 14094.0
47.798484984 14560.0
47.903527216 15004.0
48.008569449 15000.0
48.113611681 14445.0
48.218653914 14129.0
48.323696146 13294.0
48.428738379 12188.0
48.533780611 11626.0
48.638822843 10536.0
48.743865076 9611.0
48.848907308 8893.0
48.953949541 8339.0
49.058991773 7669.0
49.164034006 7509.0
49.269076238 6774.0
49.374118471 6743.0
49.479160703 6608.0
49.584202935 6329.0
49.689245168 6116.0
49.794287400 6115.0
49.899329633 6059.0
50.004371865 6005.0
50.109414098 5870.0
50.214456330 5836.0
50.319498563 5802.0
50.424540795 5774.0
50.529583027 5646.0
50.634625260 5810.0
50.739667492 5546.0
50.844709725 5541.0
50.949751957 5679.0
51.054794190 5582.0
51.159836422 5697.0
51.264878655 5571.0
51.369920887 5772.0
51.474963119 5701.0
51.580005352 5736.0
51.685047584 5796.0
51.790089817 5827.0
51.895132049 5771.0
52.000174282 5950.0
52.105216514 6088.0
52.210258747 5975.0
52.315300979 6344.0
52.420343211 6235.0
52.525385444 6648.0
52.630427676 6628.0
52.735469909 6747.0
52.840512141 7306.0
52.945554374 7480.0
53.050596606 7823.0
53.155638839 8667.0
53.260681071 9115.0
53.365723303 9883.0
53.470765536 10496.0
53.575807768 11249.0
53.680850001 12111.0
53.785892233 12913.0
53.890934466 13379.0
53.995976698 13436.0
54.101018931 14084.0
54.206061163 14430.0
54.311103395 14423.0
54.416145628 14488.0
54.521187860 14589.0
54.626230093 14626.0
54.731272325 14301.0
54.836314558 14400.0
54.941356790 14099.0
55.046399023 13733.0
55.151441255 13289.0
55.256483487 12610.0
55.361525720 11934.0
55.466567952 11130.0
55.571610185 10530.0
55.676652417 10001.0
55.781694650 9285.0
55.886736882 8621.0
55.991779115 8264.0
56.096821347 7648.0
56.201863579 7459.0
56.306905812 7263.0
56.411948044 6931.0
56.516990277 6716.0
56.622032509 6596.0
56.727074742 6434.0
56.832116974 6427.0
56.937159207 6240.0
57.042201439 5993.0
57.147243671 6013.0
57.252285904 6120.0
57.357328136 5824.0
57.462370369 5844.0
57.567412601 5847.0
57.672454834 5573.0
57.777497066 5622.0
57.882539299 5600.0
57.987581531 5545.0
58.092623763 5493.0
58.197665996 5275.0
58.302708228 5453.0
58.407750461 5354.0
58.512792693 5402.0
58.617834926 5277.0
58.722877158 5349.0
58.827919391 5326.0
58.932961623 5370.0
59.038003855 5336.0
59.143046088 5171.0
59.248088320 5498.0
59.353130553 5251.0
59.458172785 5306.0
59.563215018 5499.0
59.668257250 5404.0
59.773299483 5390.0
59.878341715 5317.0
59.983383947 5565.0
60.088426180 5506.0
60.193468412 5424.0
60.298510645 5547.0
60.403552877 5636.0
60.508595110 5476.0
60.613637342 5609.0
60.718679575 5765.0
60.823721807 5908.0
60.928764039 5931.0
61.033806272 6136.0
61.138848504 6217.0
61.243890737 6480.0
61.348932969 6748.0
61.453975202 6908.0
61.559017434 7234.0
61.664059667 7689.0
61.769101899 8214.0
61.874144131 8666.0
61.979186364 9101.0
62.084228596 9750.0
62.189270829 10261.0
62.294313061 10690.0
62.399355294 11089.0
62.504397526 11388.0
62.609439759 11517.0
62.714481991 11576.0
62.819524223 11484.0
62.924566456 11165.0
63.029608688 10911.0
63.134650921 10450.0
63.239693153 9980.0
63.344735386 9674.0
63.449777618 9073.0
63.554819851 8495.0
63.659862083 8224.0
63.764904315 7812.0
63.869946548 7218.0
63.974988780 6818.0
64.080031013 6701.0
64.185073245 6291.0
64.290115478 6413.0
64.395157710 6096.0
64.500199943 6039.0
64.605242175 6000.0
64.710284407 5843.0
64.815326640 5895.0
64.920368872 5617.0
65.025411105 5591.0
65.130453337 5556.0
65.235495570 5435.0
65.340537802 5317.0
65.445580035 5270.0
65.550622267 5169.0
65.655664499 5320.0
65.760706732 5302.0
65.865748964 5209.0
65.970791197 5211.0
66.075833429 5231.0
66.180875662 5078.0
66.285917894 5351.0
66.390960127 5195.0
66.496002359 5254.0
66.601044591 5113.0
66.706086824 5246.0
66.811129056 5199.0
66.916171289 5160.0
67.021213521 5371.0
67.126255754 5328.0
67.231297986 5376.0
67.336340219 5348.0
67.441382451 5564.0
67.546424683 5550.0
67.651466916 5450.0
67.756509148 5776.0
67.861551381 5818.0
67.966593613 5971.0
68.071635846 6262.0
68.176678078 6290.0
68.281720311 6557.0
68.386762543 6855.0
68.491804775 7089.0
68.596847008 7083.0
68.701889240 7512.0
68.806931473 7593.0
68.911973705 7775.0
69.017015938 7925.0
69.122058170 7634.0
69.227100403 7767.0
69.332142635 7773.0
69.437184867 7772.0
69.542227100 7796.0
69.647269332 8268.0
69.752311565 7881.0
69.857353797 8126.0
69.962396030 7795.0
70.067438262 8051.0
70.172480495 7929.0
70.277522727 7813.0
70.382564959 7530.0
70.487607192 7186.0
70.592649424 6895.0
70.697691657 7062.0
70.802733889 6676.0
70.907776122 6383.0
71.012818354 6178.0
71.117860587 6172.0
71.222902819 5880.0
71.327945051 5800.0
71.432987284 5634.0
71.538029516 5577.0
71.643071749 5471.0
71.748113981 5311.0
71.853156214 5410.0
71.958198446 5293.0
72.063240679 5228.0
72.168282911 5278.0
72.273325143 5255.0
72.378367376 5135.0
72.483409608 5256.0
72.588451841 5299.0
72.693494073 5172.0
72.798536306 5257.0
72.903578538 5133.0
73.008620771 5158.0
73.113663003 5370.0
73.218705235 5402.0
73.323747468 5402.0
73.428789700 5527.0
73.533831933 5499.0
73.638874165 5712.0
73.743916398 5900.0
73.848958630 6191.0
73.954000863 6337.0
74.059043095 6418.0
74.164085327 6639.0
74.269127560 6820.0
74.374169792 7166.0
74.479212025 7641.0
74.584254257 7788.0
74.689296490 8209.0
74.794338722 8510.0
74.899380955 8890.0
75.004423187 9056.0
75.109465419 9050.0
75.214507652 9193.0
75.319549884 9085.0
75.424592117 9116.0
75.529634349 8932.0
75.634676582 8469.0
75.739718814 8285.0
75.844761047 8156.0
75.949803279 7677.0
76.054845511 7690.0
76.159887744 6996.0
76.264929976 6923.0
76.369972209 6680.0
76.475014441 6423.0
76.580056674 6474.0
76.685098906 6120.0
76.790141139 5919.0
76.895183371 5644.0
77.000225603 5559.0
77.105267836 5404.0
77.210310068 5441.0
77.315352301 5301.0
77.420394533 5306.0
77.525436766 5138.0
77.630478998 4987.0
77.735521231 4815.0
77.840563463 4941.0
77.945605695 4962.0
78.050647928 4811.0
78.155690160 4670.0
78.260732393 4829.0
78.365774625 4760.0
78.470816858 4713.0
78.575859090 4770.0
78.680901323 4701.0
78.785943555 4881.0
78.890985787 4701.0
78.996028020 4810.0
79.101070252 4700.0
79.206112485 4766.0
79.311154717 4785.0
79.416196950 4714.0
79.521239182 4667.0
79.626281415 4785.0
79.731323647 4822.0
79.836365879 4880.0
79.941408112 4765.0
80.046450344 4877.0
80.151492577 5001.0
80.256534809 4934.0
80.361577042 4973.0
80.466619274 5028.0
80.571661507 5124.0
80.676703739 4991.0
80.781745971 4948.0
80.886788204 5335.0
80.991830436 5176.0
81.096872669 5368.0
81.201914901 5475.0
81.306957134 5569.0
81.411999366 5639.0
81.517041599 5815.0
81.622083831 5985.0
81.727126063 6111.0
81.832168296 6331.0
81.937210528 6495.0
82.042252761 6878.0
82.147294993 7003.0
82.252337226 7171.0
82.357379458 7551.0
82.462421691 7736.0
82.567463923 7553.0
82.672506155 7825.0
82.777548388 7954.0
82.882590620 7816.0
82.987632853 7838.0
83.092675085 7753.0
83.197717318 7298.0
83.302759550 7017.0
83.407801783 6975.0
83.512844015 6719.0
83.617886247 6417.0
83.722928480 6307.0
83.827970712 6166.0
83.933012945 6047.0
84.038055177 5784.0
84.143097410 5622.0
84.248139642 5410.0
84.353181875 5273.0
84.458224107 5291.0
84.563266339 5085.0
84.668308572 5149.0
84.773350804 4864.0
84.878393037 4869.0
84.983435269 4856.0
85.088477502 4925.0
85.193519734 4746.0
85.298561967 4830.0
85.403604199 4679.0
85.508646431 4814.0
85.613688664 4793.0
85.718730896 4652.0
85.823773129 4871.0
85.928815361 4674.0
86.033857594 4649.0
86.138899826 4613.0
86.243942059 4694.0
86.348984291 4559.0
86.454026523 4577.0
86.559068756 4428.0
86.664110988 4596.0
86.769153221 4565.0
86.874195453 4518.0
86.979237686 4532.0
87.084279918 4566.0
87.189322151 4417.0
87.294364383 4434.0
87.399406615 4365.0
87.504448848 4584.0
87.609491080 4632.0
87.714533313 4599.0
87.819575545 4493.0
87.924617778 4399.0
88.029660010 4524.0
88.134702243 4536.0
88.239744475 4457.0
88.344786707 4473.0
88.449828940 4498.0
88.554871172 4473.0
88.659913405 4491.0
88.764955637 4516.0
88.869997870 4400.0
88.975040102 4522.0
89.080082335 4408.0
89.185124567 4447.0
89.290166799 4546.0
89.395209032 4527.0
89.500251264 4409.0
89.605293497 4444.0
89.710335729 4359.0
89.815377962 4610.0
89.920420194 4417.0
90.025462427 4559.0
90.130504659 4365.0
90.235546891 4521.0
90.340589124 4543.0
90.445631356 4649.0
90.550673589 4495.0
90.655715821 4624.0
90.760758054 4432.0
90.865800286 4546.0
90.970842519 4674.0
91.075884751 4739.0
91.180926983 4690.0
91.285969216 4568.0
91.391011448 4791.0
91.496053681 4733.0
91.601095913 4658.0
91.706138146 4676.0
91.811180378 4820.0
91.916222611 4892.0
92.021264843 4835.0
92.126307075 4878.0
92.231349308 4873.0
92.336391540 4885.0
92.441433773 5065.0
92.546476005 4968.0
92.651518238 5109.0
92.756560470 5166.0
92.861602703 5442.0
92.966644935 5255.0
93.071687167 5275.0
93.176729400 5642.0
93.281771632 5512.0
93.386813865 5674.0
93.491856097 5882.0
93.596898330 5950.0
93.701940562 5942.0
93.806982795 6283.0
93.912025027 6186.0
94.017067259 6365.0
94.122109492 6445.0
94.227151724 6692.0
94.332193957 6909.0
94.437236189 6828.0
94.542278422 6603.0
94.647320654 6800.0
94.752362887 6844.0
94.857405119 6873.0
94.962447351 6854.0
95.067489584 6827.0
95.172531816 6551.0
95.277574049 6801.0
95.382616281 6630.0
95.487658514 6360.0
95.592700746 6336.0
95.697742979 6344.0
95.802785211 6050.0
95.907827443 6141.0
96.012869676 5900.0
96.117911908 5996.0
96.222954141 5787.0
96.327996373 5625.0
96.433038606 5791.0
96.538080838 5620.0
96.643123071 5427.0
96.748165303 5570.0
96.853207535 5651.0
96.958249768 5370.0
97.063292000 5597.0
97.168334233 5514.0
97.273376465 5472.0
97.378418698 5303.0
97.483460930 5429.0
97.588503163 5618.0
97.693545395 5714.0
97.798587627 5439.0
97.903629860 5570.0
98.008672092 5788.0
98.113714325 5863.0
98.218756557 5745.0
98.323798790 5857.0
98.428841022 5931.0
98.533883255 5831.0
98.638925487 6068.0
98.743967719 5970.0
98.849009952 5966.0
98.954052184 5957.0
99.059094417 6075.0
99.164136649 6026.0
99.269178882 6220.0
99.374221114 6084.0
99.479263347 5987.0
99.584305579 6037.0
99.689347811 6111.0
99.794390044 6159.0
99.899432276 6057.0
100.004474509 6110.0
100.109516741 6107.0
100.214558974 6144.0
100.319601206 6054.0
100.424643439 6130.0
100.529685671 6273.0
100.634727903 5947.0
100.739770136 6125.0
100.844812368 5966.0
100.949854601 6038.0
101.054896833 5941.0
101.159939066 6053.0
101.264981298 6007.0
101.370023531 5834.0
101.475065763 5946.0
101.580107995 5684.0
101.685150228 6050.0
101.790192460 5855.0
101.895234693 5822.0
102.000276925 5785.0
102.105319158 5787.0
102.210361390 5655.0
102.315403623 5606.0
102.420445855 5653.0
102.525488087 5599.0
102.630530320 5454.0
102.735572552 5594.0
102.840614785 5608.0
102.945657017 5484.0
103.050699250 5426.0
103.155741482 5453.0
103.260783715 5353.0
103.365825947 5497.0
103.470868179 5622.0
103.575910412 5489.0
103.680952644 5505.0
103.785994877 5355.0
103.891037109 5393.0
103.996079342 5586.0
104.101121574 5654.0
104.206163807 5347.0
104.311206039 5560.0
104.416248271 5406.0
104.521290504 5472.0
104.626332736 5649.0
104.731374969 5568.0
104.836417201 5497.0
104.941459434 5499.0
105.046501666 5684.0
105.151543899 5556.0
105.256586131 5738.0
105.361628363 5681.0
105.466670596 5639.0
105.571712828 5563.0
105.676755061 5749.0
105.781797293 5959.0
105.886839526 5744.0
105.991881758 5964.0
106.096923991 5873.0
106.201966223 6148.0
106.307008455 6134.0
106.412050688 6212.0
106.517092920 6296.0
106.622135153 6404.0
106.727177385 6567.0
106.832219618 6607.0
106.937261850 6794.0
107.042304082 7014.0
107.147346315 6899.0
107.252388547 6896.0
107.357430780 7146.0
107.462473012 7181.0
107.567515245 7107.0
107.672557477 7208.0
107.777599710 7377.0
107.882641942 7346.0
107.987684174 7319.0
108.092726407 7404.0
108.197768639 7357.0
108.302810872 7373.0
108.407853104 7278.0
108.512895337 7405.0
108.617937569 7026.0
108.722979802 7330.0
108.828022034 7338.0
108.933064266 7283.0
109.038106499 7000.0
109.143148731 6985.0
109.248190964 7036.0
109.353233196 7004.0
109.458275429 6889.0
109.563317661 6821.0
109.668359894 6760.0
109.773402126 6744.0
109.878444358 6661.0
109.983486591 6559.0
110.088528823 6610.0
110.193571056 6519.0
110.298613288 6639.0
110.403655521 6447.0
110.508697753 6626.0
110.613739986 6472.0
110.718782218 6436.0
110.823824450 6417.0
110.928866683 6481.0
111.033908915 6498.0
111.138951148 6485.0
111.243993380 6328.0
111.349035613 6367.0
111.454077845 6393.0
111.559120078 6449.0
111.664162310 6443.0
111.769204542 6560.0
111.874246775 6563.0
111.979289007 6585.0
112.084331240 6571.0
112.189373472 6808.0
112.294415705 6741.0
112.399457937 6867.0
112.504500170 7106.0
112.609542402 6931.0
112.714584634 7290.0
112.819626867 7330.0
112.924669099 7507.0
113.029711332 7690.0
113.134753564 7738.0
113.239795797 7830.0
113.344838029 7960.0
113.449880262 8110.0
113.554922494 8349.0
113.659964726 8480.0
113.765006959 8476.0
113.870049191 8561.0
113.975091424 8843.0
114.080133656 8893.0
114.185175889 8825.0
114.290218121 8811.0
114.395260354 9009.0
114.500302586 9092.0
114.605344818 8879.0
114.710387051 8995.0
114.815429283 8634.0
114.920471516 8574.0
115.025513748 8765.0
115.130555981 8611.0
115.235598213 8620.0
115.340640446 8270.0
115.445682678 8478.0
115.550724910 8278.0
115.655767143 8176.0
115.760809375 7852.0
115.865851608 8175.0
115.970893840 7781.0
116.075936073 7843.0
116.180978305 7865.0
116.286020538 7912.0
116.391062770 7761.0
116.496105002 7784.0
116.601147235 7836.0
116.706189467 7790.0
116.811231700 8181.0
116.916273932 8021.0
117.021316165 7745.0
117.126358397 7883.0
117.231400630 8094.0
117.336442862 7996.0
117.441485094 8332.0
117.546527327 8265.0
117.651569559 8608.0
117.756611792 8564.0
117.861654024 8689.0
117.966696257 8834.0
118.071738489 9104.0
118.176780722 9042.0
118.281822954 9366.0
118.386865186 9397.0
118.491907419 9668.0
118.596949651 9626.0
118.701991884 9859.0
118.807034116 9875.0
118.912076349 9885.0
119.017118581 10167.0
119.122160814 9913.0
119.227203046 9881.0
119.332245278 10100.0
119.437287511 9919.0
119.542329743 9942.0
119.647371976 10015.0
119.752414208 10041.0
119.857456441 9740.0
119.962498673 9735.0
120.067540906 9806.0
120.172583138 9840.0
120.277625370 9860.0
120.382667603 9611.0
120.487709835 9810.0
120.592752068 9667.0
120.697794300 9783.0
120.802836533 9569.0
120.907878765 9674.0
121.012920998 9768.0
121.117963230 9884.0
121.223005462 10085.0
121.328047695 10000.0
121.433089927 9736.0
121.538132160 9743.0
121.643174392 9906.0
121.748216625 9807.0
121.853258857 9925.0
121.958301090 9915.0
122.063343322 10051.0
122.168385554 10004.0
122.273427787 10238.0
122.378470019 9890.0
122.483512252 10025.0
122.588554484 9856.0
122.693596717 9854.0
122.798638949 9814.0
122.903681182 9842.0
123.008723414 9808.0
123.113765646 9690.0
123.218807879 9613.0
123.323850111 9446.0
123.428892344 9407.0
123.533934576 9316.0
123.638976809 9259.0
123.744019041 9115.0
123.849061274 9269.0
123.954103506 8973.0
124.059145738 8861.0
124.164187971 8709.0
124.269230203 8785.0
124.374272436 8491.0
124.479314668 8717.0
124.584356901 8648.0
124.689399133 8435.0
124.794441366 8529.0
124.899483598 8386.0
125.004525830 8439.0
125.109568063 8386.0
125.214610295 8222.0
125.319652528 8309.0
125.424694760 8275.0
125.529736993 8204.0
125.634779225 8426.0
125.739821458 8091.0
125.844863690 8271.0
125.949905922 8176.0
126.054948155 7928.0
126.159990387 8133.0
126.265032620 8163.0
126.370074852 8012.0
126.475117085 8332.0
126.580159317 8177.0
126.685201550 8117.0
126.790243782 8117.0
126.895286014 8340.0
127.000328247 8052.0
127.105370479 8240.0
127.210412712 8254.0
127.315454944 8031.0
127.420497177 8144.0
127.525539409 8208.0
127.630581642 8183.0
127.735623874 8124.0
127.840666106 8462.0
127.945708339 8394.0
128.050750571 8514.0
128.155792804 8488.0
128.260835036 8580.0
128.365877269 8495.0
128.470919501 8616.0
128.575961734 8779.0
128.681003966 8443.0
128.786046198 8833.0
128.891088431 8708.0
128.996130663 8906.0
129.101172896 8960.0
129.206215128 8863.0
129.311257361 9125.0
129.416299593 9124.0
129.521341826 9130.0
129.626384058 9255.0
129.731426290 9269.0
129.836468523 9458.0
129.941510755 9351.0
130.046552988 9518.0
130.151595220 9698.0
130.256637453 9400.0
130.361679685 9755.0
130.466721918 9667.0
130.571764150 9591.0
130.676806382 9724.0
130.781848615 9867.0
130.886890847 9835.0
130.991933080 9829.0
131.096975312 9738.0
131.202017545 9968.0
131.307059777 9971.0
131.412102010 9793.0
131.517144242 9901.0
131.622186474 10022.0
131.727228707 9828.0
131.832270939 9986.0
131.937313172 9993.0
132.042355404 9943.0
132.147397637 9753.0
132.252439869 9716.0
132.357482102 9847.0
132.462524334 9735.0
132.567566566 9839.0
132.672608799 9677.0
132.777651031 9590.0
132.882693264 9528.0
132.987735496 9505.0
133.092777729 9602.0
133.197819961 9607.0
133.302862194 9383.0
133.407904426 9277.0
133.512946658 9577.0
133.617988891 9430.0
133.723031123 9403.0
133.828073356 9320.0
133.933115588 9411.0
134.038157821 9482.0
134.143200053 9441.0
134.248242286 9372.0
134.353284518 9315.0
134.458326750 9539.0
134.563368983 9416.0
134.668411215 9699.0
134.773453448 9438.0
134.878495680 9584.0
134.983537913 9564.0
135.088580145 9563.0
135.193622378 9678.0
135.298664610 9805.0
135.403706842 9636.0
135.508749075 9922.0
135.613791307 9880.0
135.718833540 9775.0
135.823875772 9890.0
135.928918005 10241.0
136.033960237 10122.0
136.139002470 10134.0
136.244044702 10223.0
136.349086934 10450.0
136.454129167 10230.0
136.559171399 10550.0
136.664213632 10582.0
136.769255864 10774.0
136.874298097 10534.0
136.979340329 10784.0
137.084382562 10756.0
137.189424794 10686.0
137.294467026 10974.0
137.399509259 10749.0
137.504551491 10714.0
137.609593724 10794.0
137.714635956 10866.0
137.819678189 10776.0
137.924720421 10796.0
138.029762654 11065.0
138.134804886 10985.0
138.239847118 10658.0
138.344889351 10764.0
138.449931583 10643.0
138.554973816 10467.0
138.660016048 10599.0
138.765058281 10791.0
138.870100513 10494.0
138.975142746 10318.0
139.080184978 10375.0
139.185227210 10131.0
139.290269443 10383.0
139.395311675 10083.0
139.500353908 10244.0
139.605396140 10239.0
139.710438373 10252.0
139.815480605 10265.0
139.920522838 10092.0
140.025565070 10151.0
